<Actel_Data_File>
    <format name="NVM File" version="01.00.00"/>
    <header>
        <die>
            M2S060T
        </die>
        <family>
            SmartFusion2
        </family>
        <module>
            
        </module>
        <package>
            325 FCSBGA
        </package>
        <version>
            11.8.1.12
        </version>
    </header>
    <nvm>
        <region name="Debug_x1" address="0x000000" retrieveAddressFromFile="false" size="13616" format="HEX" type="Data Storage" wordSize="8" numberWords="13616" memFile="C:/Users/gcallsen/Documents/GitHub/IRAIL-1.6-FPGA/Emcraft_Firmware/DebugC-090217-DebugColl_x1.hex" memType="INTELHEX" memFileTimeStamp="1504354397" clientType="public" program="true">
            00000120910100007f030000810300008303000085030000870300000000
            0000000000000000000000000000890300008b030000000000008d030000
            8f03000091030000930300009503000097030000990300009b0300009d03
            00009f030000a1030000a30300007523000055230000a9030000ab030000
            ad030000af030000b1030000b3030000b5030000b7030000b9030000bb03
            0000bd030000bf030000c1030000c3030000c5030000c7030000c9030000
            cb030000cd030000cf030000d1030000d3030000d5030000d7030000d903
            0000db030000dd030000df030000e1030000e3030000e5030000e7030000
            e9030000eb030000ed030000ef030000f1030000f3030000f5030000f703
            0000f9030000fb030000fd030000ff030000010400000304000005040000
            07040000090400000b0400000d0400000f04000011040000130400001504
            000017040000190400001b0400001d0400001f0400002104000023040000
            2504000027040000290400002b0400002d0400002f040000310400003304
            000000000000000000004ff0000bdff8be020068dff8b612096801f00301
            00f01c00142801d14bf0020b002901d04bf0010bbbf1000f05d0a748a749
            dff8722200f09ff8a64880470bf0020abaf1000f0cd0dff86e02dff86e12
            02680b680fb44ff000024ff0ff0302600b609d489d4a9e4b022808d1dff8
            3e120a60dff842120a60dff836120b60012808d1dff82e120a60dff82a12
            0a60dff81e120b609348002809d193489349944a00f032f893489449944a
            00f02df894489449954a00f028f894489549dff8e62100f05af8bbf1000f
            12d092489249dff8da2100f051f80bf0020abaf1000f07d00fbc02600b60
            00bfaff30080aff30080dff828020ff2030e00474ff000004ff00001dff8
            1cf2fee72de9f841884225d0b2eb010200d5fee740ea010313f0030302d0
            00f01df819e04ff0000390461211f7d09a421cbff0c8f0c103f10103f8d1
            08f00f08b8f1000f08d004780c7000f1010001f10101b8f10108f6d1bde8
            f88108b54ff0000303780b7000f1010001f10101013af7d108bd884237d0
            00f00306002e14d04ff00405a5eb06044ff0080707fb06f8914669fa08f9
            002c07d080f8009069fa07f900f10100013cf5e74ff000060f46091a8846
            0911914614461546b14206d018bfa0e8340206f10106b142f8d108f00f08
            b8f1000f07d002704fea322200f10100b8f10108f4e77047fee7fee7fee7
            fee7fee7fee7fee7fee7fee7fee7fee7fee7fee7fee7fee7fee7fee7fee7
            fee7fee7fee7fee7fee7fee7fee7fee7fee7fee7fee7fee7fee7fee7fee7
            fee7fee7fee7fee7fee7fee7fee7fee7fee7fee7fee7fee7fee7fee7fee7
            fee7fee7fee7fee7fee7fee7fee7fee7fee7fee7fee7fee7fee7fee7fee7
            fee7fee7fee7fee7fee7fee7fee7fee7fee7fee7fee7fee7fee7fee7fee7
            fee7fee7fee7fee7fee7fee7fee7fee7fee7fee7fee7fee7fee770470000
            0000a2a2a2a2008003400880034010800340308003403480034038800340
            18080240000000f0002000000120f1290000000000000000000001000000
            00000000000000000000000090010000c0040000c0040000103500001035
            0000000000202000002020000020b0000020b000002000f00020312a0000
            45100000aff30080aff30080aff3008040f22003c2f200031a780ab90120
            1870704700bf40f20000c2f2000008b503682bb140f20003c0f2000303b1
            984708bd2de9f84f40f2300540f234048c46c5f200044fea102800f0ff07
            40f20801c5f20005c5f80080c5f20001276086014fea1c2a8008bcf10504
            08600e60c1f800a0c1f800c09a461fd001230026acf10609a3420e6009f0
            030016d258b1012805d002281cbf0b6002230b6001330b600133a34209d2
            581c0b60df1c0433451ca34208600d600f60f5d3012a74d040f21003022a
            c5f2000375d02021196040f2140540f21007c5f20005c5f200074ff0200b
            10264ff001094ff080080de014f0100f1ed114f0010f2ad114f0800f18bf
            c5f8008014f0b10f36d12c6814f0200fedd040f2640042f68021c2f20000
            c0f20001c5f800b001f090fd14f0100f3e60e0d040f2640042f6a021c2f2
            0000c0f200012e6001f081fd14f0010f3e60d4d040f2640042f6c021c5f8
            0090c2f20000c0f2000101f071fd14f0800f18bfc5f8008014f0b10fc8d0
            baf1000f12d140f214034ff6ff72c5f20003c0f203020af1070a92451968
            196819681968196819681968f4d1bde8f88f40f21003c5f2000330221a60
            8be720321a6088e700bf10b540f2640042f60c3182b0c2f20000c0f20001
            01f03afd4ff0a0431b684ff03032019200926c4673b1072104e030321b09
            625408d0013903f00f02092af6d937321b096254f6d140f26400c2f20000
            6946082201f0c4fc40f2640042f63431c2f20000c0f2000101f010fd40f2
            0401c5f200010b684ff030306060206073b1072104e030321b09625408d0
            013903f00f02092af6d937321b096254f6d140f264000822c2f200006946
            01f099fc40f2640042f65c31c2f20000c0f2000101f0e5fc40f21003c5f2
            00031b684ff030326260226073b1072104e030321b09625408d0013903f0
            0f02092af6d937321b096254f6d140f26400c2f200006946082201f06efc
            40f2640042f68431c2f20000c0f2000101f0bafc40f21401c5f200010b68
            4ff030306060206073b1072104e030321b09625408d0013903f00f02092a
            f6d937321b096254f6d140f264000822c2f20000694601f043fc40f26400
            42f6ac31c2f20000c0f2000101f08ffc40f21803c5f200031b684ff03032
            6260226073b1072104e030321b09625408d0013903f00f02092af6d93732
            1b096254f6d140f26400c2f200006946082201f018fc40f2640042f6d431
            c2f20000c0f2000101f064fc40f21c01c5f200010b684ff0303060602060
            73b1072104e030321b09625408d0013903f00f02092af6d937321b096254
            f6d140f264000822c2f20000694601f0edfb40f2640042f6fc31c2f20000
            c0f2000101f039fc40f23003c5f200031b684ff030326260226073b10721
            04e030321b09625408d0013903f00f02092af6d937321b096254f6d140f2
            6400c2f200006946082201f0c2fb40f2640042f62441c2f20000c0f20001
            01f00efc40f23401c5f200010b684ff030306060206073b1072104e03032
            1b09625408d0013903f00f02092af6d937321b096254f6d140f26400c2f2
            00006946082201f097fb02b010bd00bf2de9f04f91b002ab0193019c42f6
            dc2ec0f2000e80468946bee80f000fc4a3469ee80700abe8030009af0097
            5e4642f6f825ddf800b03280c0f200054fea124c0fcdabe80f0084f80ac0
            2d8840f2140040f2300140f23402ff24c5f200024fea182a08f0ff0e40f2
            1003c5f20000c5f20001abf800504fea88160460c5f20003c1f800a040f2
            1c07c2f800e0002226401a60c5f200074fea98084fea192509ea04043a68
            12f0100ffbd040f2140a4020c5f2000a40f20c01caf80000c5f200010f68
            474508bf4ff0000b00f0908040f2640042f64c41c2f20000c0f2000101f0
            79fb40f2640042f66441c2f20000c0f2000101f06ffbdaf800304ff03032
            0f920e920df1380a83b1072105e030321b090af8012009d0013903f00f02
            092af5d937321b090af80120f5d140f26400c2f200005146082201f0f7fa
            40f2640042f68441c2f20000c0f2000101f043fb4ff03033caf80430caf8
            0030b8f1000f12d0072206e030335fea18180af802300ad0013a08f00f03
            092bf4d937335fea18180af80230f4d140f26400c2f200005146082201f0
            c9fa40f2640042f69841c0f20001c2f2000001f015fb4ff03031caf80410
            caf8001087b1072205e030333f090af8023009d0013a07f00f03092bf5d9
            37333f090af80230f5d140f26400c2f200005146082201f09ffa4ff0010b
            40f20c00c5f200000768b74200f08f8040f2640042f6ac41c2f20000c0f2
            000101f0e1fa40f2640042f66441c2f20000c0f2000101f0d7fa40f21403
            c5f200031b684ff030320f920e920df1380883b1072105e030321b0908f8
            012009d0013903f00f02092af5d937321b0908f80120f5d140f26400c2f2
            00004146082201f05cfa40f2640042f68441c0f20001c2f2000001f0a8fa
            4ff03031c8f80410c8f8001086b1072205e03033360908f8023009d0013a
            06f00f03092bf5d93733360908f80230f5d140f26400c2f2000041460822
            01f032fa40f2640042f698414ff03036c2f20000c0f2000101f07cfac8f8
            0460c8f8006087b1072205e030333f0908f8023009d0013a07f00f03092b
            f5d937333f0908f80230f5d140f26400c2f200004146082201f008fa4ff0
            010b40f20c00c5f200000668ae4200f0848040f2640042f6c441c2f20000
            c0f2000101f04afa40f2640042f66441c2f20000c0f2000101f040fa40f2
            1402c5f2000213684ff030370f970e970eaf73b1072104e030321b097a54
            08d0013903f00f02092af6d937321b097a54f6d140f26400c2f200003946
            082201f0c8f940f2640042f68441c2f20000c0f2000101f014fa4ff03033
            7b603b6075b1072204e030332d09bb5408d0013a05f00f03092bf6d93733
            2d09bb54f6d140f26400c2f200003946082201f0a2f940f2640042f69841
            4ff03035c2f20000c0f2000101f0ecf97d603d6076b1072204e030333609
            bb5408d0013a06f00f03092bf6d937333609bb54f6d140f26400c2f20000
            3946082201f07cf94ff0010b40f20c01c5f200010d68a54200f0848040f2
            640042f6dc41c2f20000c0f2000101f0bef940f2640042f66441c2f20000
            c0f2000101f0b4f940f21400c5f2000003684ff030360f960e960eae73b1
            072104e030321b09725408d0013903f00f02092af6d937321b097254f6d1
            40f264000822c2f20000314601f03cf940f2640042f68441c2f20000c0f2
            000101f088f94ff030327260326074b1072204e030332409b35408d0013a
            04f00f03092bf6d937332409b354f6d140f26400c2f200003146082201f0
            16f940f2640042f69841c2f20000c0f2000101f062f94ff0303373603360
            75b1072204e030332d09b35408d0013a05f00f03092bf6d937332d09b354
            f6d140f26400c2f200003146082201f0f0f84ff0010bb9f1050900f0be80
            40f2140440f20c0ac5f200045b46c5f2000a4ff0000830270eaea346daf8
            004008f0ff05ac4200f0a38040f2640042f6f441c2f20000c0f2000101f0
            21f940f2640042f66441c2f20000c0f2000101f017f9dbf800308df83870
            8df839708df83a708df83b708df83c708df83d708df83e708df83f7073b1
            072104e030321b09725408d0013903f00f02092af6d937321b097254f6d1
            40f26400c2f200003146082201f097f840f2640042f68441c2f20000c0f2
            000101f0e3f88df838708df839708df83a708df83b708df83c708df83d70
            8df83e708df83f7075b1072204e030332d09b35408d0013a05f00f03092b
            f6d937332d09b354f6d140f26400c2f200003146082201f065f840f26400
            42f69841c2f20000c0f2000101f0b1f88df838708df839708df83a708df8
            3b708df83c708df83d708df83e708df83f7074b1072204e030332409b354
            08d0013a04f00f03092bf6d937332409b354f6d140f26400c2f200003146
            082201f033f8012308f10108c845fff451af9b4640f20c03c5f200031a68
            1b68bbf1000f0bd140f26400c2f2000009a9122201f01bf8002011b0bde8
            f08f40f26400c2f2000002a91b2201f00ff85846f2e700bf2de9f04fadf5
            8a6d83b00df588620c320192019b43f23444c0f2000494e8070083e80700
            01f0a2fb0020032101f0eafb0120052101f0e6fb0220014601f0e2fb0320
            014601f0defb0420032101f0dafb0520014601f0d6fb0620052101f0d2fb
            0720052101f0cefb0820052101f0cafb0920022101f0c6fb0a20022101f0
            c2fb0b20052101f0befb0c20032101f0bafb0d20052101f0b6fb0e200321
            01f0b2fb0f20032101f0aefb1020032101f0aafb1120032101f0a6fb1220
            032101f0a2fb1320022101f09efb1420052101f09afb1520052101f096fb
            1620052101f092fb1820052101f08efb1920032101f08afb1a20032101f0
            86fb1c20052101f082fb1f20032101f07efb40f264000322c2f200004ff4
            614101f0f9fa40f2640042f62851c2f20000c0f2000100f0cbff43f20005
            40f264000df588610c310c22c4f20105c2f2000000f067ffd5f8881040f6
            000321f0805bc4f20203c5f888b0002242f2de751a609d6040f20f35dd60
            4ff0020ac125c3f810a05a619d6140f69f15dd6143f233351a625d624ff6
            ff759d6247f27775dd6240f6ff751d63012144f2422559639d630825dd63
            4ff033091835c3f840905d64a0359a64da641d659d3d5d6540f235259d65
            6425dd6540200324a4351d6670355d6641f64715c3f86890dd6610251d67
            4ff44c555a679d6740f214554ff4007cda67c3f88020c3f884501225c3f8
            8820c3f88cc0c3f89000c3f894504ff48045c3f898a048f2f808c3f89c50
            4ff0070e40f20935c3f8a080c3f8a4e0c3f8a880c3f8ace0c3f8b0c0c3f8
            b410c3f8b820c3f8bc40c3f8c040c3f8c400c3f8c820c3f8cc20c3f8d020
            c3f8d420c3f8d8508025c3f8e02040f20147c3f8402144f21006c3f81c22
            c3f82452753dc3f83042c3f83822c3f84022c3f84852c3f85c02c3f86072
            c3f86462c3f868222132c3f88012c3f89802c3f89c72c3f8a062c3f8d802
            c3f8dc72c3f8e062c3f8fc22183ac3f804439b46c3f80813c3f80c13c3f8
            1423c3f81c131960dbf8e460002efbd040f21003c5f20003102440f21400
            40f230071c60c5f2000740f23402c5f2000042f6dc2c42f6f82e02260068
            00253e60c5f2000240f20c04a921c0f2000cc0f2000e0df582600df58767
            1160cdf80cc01d60cdf814e0c5f2000440f2a9254ff0080b00f10c090097
            07ae40f264004ff48062c2f20000314600f0effe377802460028f1d040f2
            6400c2f200003146313f00f04ffe382f00f2aa83dfe817f097038e037903
            64030e0379026402aa042504a803a803a803a803a803a803a803a803a803
            a803a803a803a803a803a803a803a803a803a803a803a803a803a803a803
            a803a803a803a803a803a803a803a803a803a803a803a803a803a803a803
            dc03b3038c05f404290537028d01e300390040f2640043f2e431c2f20000
            c0f2000100264ff6ff7700f05afec0f20f074fea1b280bf0ff0aabf10505
            04964ff47370594602220123fff73ef8ddf80cc0ce46bce80f00aee80f00
            73469ce8070003c31946130c0a8089f81a3021682068002800f08a850121
            2268206842450cbf0a460122504518bf0122002d48d020680123691e0028
            18bf1a46ab4201f003013ed2c1b101290dd0022904d02168994218bf0122
            0223206803f0ff0c604518bf01220133206803f0ff0e0133704518bf0122
            ab4224d2d4f800e0591c206803f0ff0ce6450cbf94464ff0010c01f1010e
            226801f0ff0188420cbf614601210ef0ff0e03f1030c206872450cbf0a46
            01220cf0ff0c0433604518bf0122ab42dad3012a2368236800f023850136
            be4286d1049e002e00f0538540f2640042f62851c2f20000c0f2000100f0
            cafd40f264000df58861c2f200000c310c2200f06afd4ff4737501e740f2
            640043f2b431c2f20000c0f2000100264ff6ff7700f0b0fdc0f20f074fea
            1b280bf0ff0aabf1050504960222012340f2ab205946fef794ffddf80cc0
            ce46bce80f00aee80f0073469ce8070003c31946130c0a8089f81a302168
            2068c02800f0ea8401212268206842450cbf0a460122504518bf0122002d
            48d020680123691e002818bf1a469d4201f003013ed9c1b101290dd00229
            04d02168994218bf01220223206803f0ff0c604518bf01220133206803f0
            ff0e0133704518bf01229d4224d9d4f800e0591c206803f0ff0ce6450cbf
            94464ff0010c01f1010e226801f0ff0188420cbf614601210ef0ff0e03f1
            030c206872450cbf0a4601220cf0ff0c0433604518bf01229d42dad8012a
            2368236800f06c840136be4286d1049f002f00f0b58440f2640042f62851
            c2f20000c0f2000100f020fd40f264000df58861c2f200000c310c2200f0
            c0fc40f2ab2557e640f2640043f28431c2f20000c0f2000100264ff6ff77
            00f006fdc0f20f074fea1b280bf0ff0aabf1050504960222012340f2aa20
            5946fef7eafeddf80cc0ce46bce80f00aee80f0073469ce8070003c31946
            130c0a8089f81a3021682068802800f03b8401212268236890450cbf0a46
            01229a4518bf0122002d48d020680123691e002818bf1a46ab4201f00301
            3ed2c1b101290dd0022904d02168994218bf01220223206803f0ff0c6045
            18bf01220133206803f0ff0e0133704518bf0122ab4224d2d4f800e0591c
            206803f0ff0ce6450cbf94464ff0010c01f1010e226801f0ff0188420cbf
            614601210ef0ff0e03f1030c206872450cbf0a4601220cf0ff0c04336045
            18bf0122ab42dad3012a2368236800f0b6830136be4286d1049d002d00f0
            178440f2640042f62851c2f20000c0f2000100f076fc40f264000df58861
            c2f200000c310c2200f016fc40f2aa25ade540f2640043f26831c2f20000
            c0f2000143f2000600f05dfcc4f201064ff08050c6f88800d6f8881040f2
            640021f08057c6f8887042f62851c2f20000c0f2000100f047fc0df58861
            40f26400c2f200000c310c2200f0e7fb80e540f2640043f29c11c2f20000
            c0f2000100f032fc2846594602220123fef720fe40f2640042f62851d9e7
            40f2640043f23c11c2f20000c0f2000100f01dfc0122284659461346fef7
            0bfeddf80ca04f46bae80f000fc7b8469ae80700a8e80300130c41460a80
            89f81a30aa012368206802f0ff0c844500f07883012320682668b0eb1b2f
            18bf01230bf0ff0eb6450cbf1a460122bbf1050148d027680123abf1060c
            002f18bf1a468b420cf003003dd2c0b101280dd0022804d027680223012f
            18bf0122206803f0ff08404518bf01220133266803f0ff0a0133564518bf
            01228b4223d22768581c266803f0ff08474518bf012200f1010e276800f0
            ff0086420cbf94464ff0010c0ef0ff0ada1c266857450cbfe0464ff00108
            02f0ff02043396420cbf424601228b42dbd3012a2368236800f0058340f2
            640042f60c51c2f20000c0f2000100f097fb40f2640042f6285144e740f2
            640043f2fc01c2f20000c0f2000100f088fbddf80c80ca46b8e80f00aae8
            0f00534698e8070003c3059eddf800c01a804fea124a0fceace80f00b6f8
            00e06746a7f800e089f81aa0a9012368266801f0ff08b04500f0d8820123
            27682268b7eb1b2f18bf01230bf0ff0191420cbf1a460122bbf1050109d0
            0023266803f0ff0e0133764518bf01228b42f6d3012a2368236800f0aa82
            40f26400c2f200000df58761122200f0e7faa4e740f2640043f2c001c2f2
            0000c0f2000100f032fb2846594601220023fef720fd40f2640042f62851
            d9e640f2640043f2a001c2f20000c0f2000100f01dfb40f21003c5f20003
            102240f2640042f628511a60c4e640f2640043f28001c2f20000c0f20001
            e9e7fef7c1fd40f2640043f27801c2f20000c0f2000100f0fdfa40f26400
            42f62851aae640f2640043f21441c2f20000c0f2000100f0eefa55e740f2
            640043f29821c2f20000c0f2000100f0e3fa40f2f9314ff42a70fef7f3fe
            40f2640042f62851c2f20000c0f2000100f0d3fa40f264000df58861c2f2
            00000c310c2200f073fa40f2a92540f2f93b08e440f2640043f26421c2f2
            0000c0f2000100f0bafa40f2140240f23001c5f20002c5f20001ff260225
            40f2340740f208031660c5f200030d604ff42a42c5f20007a820aa260321
            40f2f93538601e601a60196000221d601a600132b2f57d7ffad140f21003
            c5f2000340f2140220201860c5f20002176840f2140317f0800fc5f20003
            f7d0802540f2640042f628511d60a1e740f2640043f21821c2f20000c0f2
            000100f071fa0222012328465946fef75ffcddf80ca04f46bae80f000fc7
            b8469ae80700a8e80300130c41460a8089f81a30aa012368266802f0ff0e
            b64500f0c081012326682068b6eb1b2f18bf01230bf0ff0c84450cbf1a46
            0122bbf105013ff49cae27680123abf1060e002f18bf1a468b420ef00300
            bff490aec8b101280dd0022804d027680223012f18bf0122206803f0ff0c
            604518bf01220133266803f0ff0e0133764518bf01228b42bff475ae2768
            581c266803f0ff08474518bf012200f1010e276800f0ff0086420cbf9446
            4ff0010c0ef0ff0ada1c266857450cbfe0464ff0010802f0ff0204339642
            0cbf424601228b42dbd34fe640f2640043f2d811c2f20000c0f2000100f0
            ecf9ddf80ca04e46bae80f000fc6b0469ae80700a8e80300059f4046ddf8
            00e002804fea124a0fcfaee80f00b7f800c07346a3f800c089f81aa0ae01
            2368226806f0ff01914200f06b81012327682268b7eb1b2f18bf01230bf0
            ff0191420cbf1a460122bbf105013ff46cae0023206803f0ff0c01336045
            18bf01228b42f6d360e640f2640043f20c31c2f20000c0f2000100f0a2f9
            08214ff42a70fef7b3fd012809d040f2640042f60c51c2f20000c0f20001
            00f091f940f2640042f62851c2f20000c0f2000100f087f940f264000df5
            8861c2f200000c310c2200f027f940f2a9254ff0080bfff7bcba40f26400
            43f24431c2f20000c0f2000100f06df940f2300740f2140140f2340640f2
            080340f21005c5f20001c5f20007c5f20006c5f20003c5f2000500204ff0
            ff084ff0800c0222c1f800803a60023a32604ff40042c3f800c01a600322
            1a604ff47f721a6000221a6001321a6092181a6040f2f73b01325a4511d0
            02f1010e0ef1010b1a6002f1030ac3f800e00432c3f800b040f2f73b5a45
            c3f800a0edd120222a609e460b6840f2140213f0800fc5f20002f7d00130
            b0f5803f7346c2f800c0c0d182e740f2640043f2d421c2f20000c0f20001
            00f00af940f21401ff2740f2300540f23400c5f200010f600226c5f20005
            c5f20000a82740f208032e60c5f2000307604ff42a45aa20002718601d60
            1f6008371f60083f40f21002781c1f60c5f2000218601e60202616600a68
            40f2140312f0800fc5f20003f7d0802640f2640042f628511e6043e740f2
            64001b22c2f20000494600f073f8049a531c04933de440f264001b22c2f2
            0000494600f067f8049a531c0493fff787bb40f264001b22c2f200004946
            00f05af8049a531c0493fff7d0baf33918bf0121fff772baaa3918bf0121
            fff7c1bbaa3918bf0121fff712bb40f26400c2f2000049461a3200f03ef8
            fbe4b3eb950f0cbf002301233ae6b3eb950f0cbf0023012322e5b3eb950f
            0cbf0023012382e440f2640042f60c51c2f20000c0f2000100f077f8fff7
            a1ba40f2640042f60c51c2f20000c0f2000100f06bf8fff73fbb40f26400
            42f60c51c2f20000c0f2000100f05ff8fff7ddbbb3eb950f0cbf00230123
            8fe600bf40f26403c2f2000398422de9f00508d040f2240cc2f2000c6045
            02d0bde8f00570470b1e18bf0123002a0cbf002303f00103002bf2d090f8
            0d80d0f800a000259af814c048ea0c081cf0200f80f80d8023d00f2a24d9
            10274e5d0468012307f1ff3c26700cea030605eb030c4d19bb4211d236b1
            ee5c0223bb4226700cf1010c09d2ee5c01332670ee5c0133bb4226700cf1
            020cf5d36546d21a002ad0d1bde70ab11746d8e71346d21af6e740f26403
            c2f2000398422de9f00508d040f22402c2f20002904202d0bde8f0057047
            0029fad00d78002df7d0427b04684ff0000c237d1a4313f0200ffad04273
            25b96346002de9d09c46f3e7d0f800a0002601eb0c0801368af8005018f8
            065006eb0c032f1e18bf01270f2e8cbf002707f00107002fe5d0ede700bf
            40f26403c2f20003984270b409d040f2240cc2f2000c604503d000231846
            70bc70470b1e18bf0123002a0cbf002303f00103002bf1d0046890f80dc0
            237d43ea0c0c13f0010f80f80dc0e6d000232578cd540468467b94f814c0
            01334cea06069a4294bf00250cf001054673002deed1d4e700bf40f26403
            c2f20003984210b5044606d040f22400c2f20000844200d010bd2268117a
            01f00f0cbcf10c0ff7d801a151f82cf000bf7d2200001522000075220000
            852200006d22000015220000612200001522000015220000152200001522
            0000152200006d220000e369002bd6d02046984710bd236a002bf9d1cfe7
            636a002bf5d1cbe7a36a002bf1d1c7e7283222f07f4020f4700302f07041
            580101f1007c5cf8003013f0ff0f05d0e36a1bb1204698472268283202f0
            704022f07f4c00f100732cf47001181d4901435813f0ff0f05d0236b1bb1
            204698472268283202f0704322f07f4c03f100702cf47001083049014358
            13f0ff0f05d0636b1bb1204698472268283202f0704322f07f4c2cf47000
            03f100730c334101585810f0ff0f05d0a36b1bb1204698472268283222f0
            7f4c02f0704101f100722cf4700310325801115811f0ff0f3ff468afe36b
            002b3ff464af2046984760e700bf684620f007018d4601b540f22400c2f2
            0000fff747ffbde801408546704700bf684620f007018d4601b540f26400
            c2f20000fff737ffbde801408546704700bf40f26403c2f20003984270b4
            07d040f22401c2f20001884201d070bc70470469002cfad04369002bf7d0
            016890f80dc00a7d42ea0c0c12f0200f80f80dc0826929d09d1a0f2d38d9
            1025a41826786b1e0e7003f00106012301329d42826119d946b194f801c0
            022301329d4281f800c082610fd914f803c0013281f800c00133826114f8
            03c0013301329d4281f800c08261efd843699a42bfd102680021131d23f0
            7f4c03f0704202f100732cf470020433520199504161afe7002dc5d1eae7
            2de9f04f40f264038fb0c2f200030b9248f200029842c4f2030204460d91
            906c4ef2001100f0298140f48077cef200014ff400669764c1f88061956c
            40f2000125f48070c4f2010190640b222271216000220d460a7101f11006
            05f8082f01f1380a2af07f4b01f1340925f07f4726f07f4805f0704506f0
            70460af0704acdf810a0069529f07f4006f100750390019509f07049049d
            cdf81c90ddf80c9005f1007529f4700a0a952bf47009079dddf818b0cdf8
            14900bf1007905f1007b049d01f1300c2cf07f4005f100750cf0704ccdf8
            0ca004950cf100750cf1007aac46039dcdf824a06d010395059d28f47008
            6d010595069dca4605f100750695019d4fea481814350195079d27f47007
            05f100750795049d7f0104350495654614350895099dcdf830801c350995
            0a9d4ff001080c350af1080a09f104090a9506f1007649f807800c9d4af8
            0780ddf818a010364af807807251ddf80ca0019e0bf1040b72514bf80a20
            ddf81cb0059d4bf80a20049eddf820a020f4700040010cf1180c7251ddf8
            24b04af800204cf80020ddf828c09c424bf800204cf8052081f8442081f8
            482081f84c2079d040f22403c2f200039c4215d00b9d00200d7360730d9e
            6061a66025732061a06120626062e061a062e06220636063a063e0630fb0
            bde8f08f0d9fa76000f00ef940f21801c2f200010a680d9ed700b7fbf6f2
            d3095708b3f5803f28bf2168d5d2012b216850d901f10c0020f07f4c00f0
            704606f100702cf4700a4fea4a1e0d465ffa83f8a7eb83171c300126c2f3
            c73a40f80e60a7ebc31381f804a005f8308b9a1825f07f4305f0704523f4
            7008a2eb470705f100751c354fea4818ffb2002340f80e3045f8086081f8
            3c709ee740f08007cef200014ff480669764c1f88061956c4ff0804125f0
            800090640a2222712160d7e60d9aa26000f0b0f840f21401c2f200010a68
            a0e701f10c0c2cf07f4e0cf070422ef4700502f100724fea451e08460025
            dbb21c32012642f80e600d7100f8303b20f07f4c00f0704000f100762cf4
            70031c365b0142f80e50f5505de7f8b50446fff77efe22684ff6ff7302f1
            340002f13005c0f20f0305f07047383200f0704102ea030607f1007c1d40
            00ea030702f0704201f1007142f295307b010cf10c0c02f100776d010022
            08317601c0f200004cf805206062ca50ba51f8bd48f20002c4f203022de9
            f005946c43f2404644f480139364906c4ef2001340f0f0719164c0f20006
            cef2000300220127551cb45c16f805a004f01f000af01f0117fa00f017fa
            01f14ffa8af862b254094fea581c6a1c04f1600a0cf1600820340cf1200c
            202a43f8240043f82a0043f82c1043f82810dbd148f20003c4f203039a6c
            22f0f0709864996c21f480129a64bde8f005704700bf1f289fbf43f26043
            c0f2000353f82030196070472de9f00148f20003c4f20303d3f8982083b0
            12f0806f19d1d3f8980010f4805f4ed043f2e04cc0f2000c6a469ce80300
            82e80300d3f89c1002afc1f38216bd1915f8084c012c00f081806ad2d3f8
            500147f640084ff2800310f0040fc0f27d18c0f2fa2340f21c0540f21404
            40f2180040f208074af6e07c40f20c0140f2100240f2040608bf4346c2f2
            0005c2f20004c2f20000c2f20007c0f21d2cc2f20001c2f20002c2f20006
            c7f800c033602b60236003600b60136003b0bde8f001704740f21c054bf6
            807340f2140445f6c07240f2180040f2080c4af6e07840f20c0740f21001
            40f20406c0f67603c0f23b42c2f20005c2f20004c2f20000c2f2000cc0f2
            1d28c2f20007c2f20001c2f20006ccf800803a6033602b60226002600b60
            cae744f2402340f21c0540f2140440f2180040f208074af6e07c40f20c01
            40f2100240f20406c0f20f039de740f21c0540f2140440f2180040f20807
            4af6e07c40f20c0140f2100240f20406c2f20005c2f20004c2f20000c2f2
            0007c0f21d2cc2f20001c2f20002c2f200064ff400438ae700bf48f20003
            c4f20303d3f84c114ff6020291420bd1d3f8980040f48072c3f89820d3f8
            981021f08060c3f898004ef60053cef200035a6942f400715961fdf702bd
            70b543f2005643f20055c0f20006c0f20005761bb61006d0002455f82430
            01349847a642f9d843f2005543f20456c0f20005c0f20006761b00f03efd
            b61006d0002455f8243001349847a642f9d870bd0a0d2020545820464946
            4f20554e44455252554e20494e5445525255505400000a0d202054582046
            49464f204f564552464c4f5720494e5445525255505400000a0d20205458
            20434f4c4c4953494f4e20494e5445525255505400000a0d202121212121
            21204641494c4544205258205041434b455400000a0d2050415353205258
            205041434b45540000000a0d0a0d202046504741205265766973696f6e20
            52656769737465723a20202020202020307800000a0d2020465047412053
            637261746368205061642052656769737465723a20202020307800000000
            0a0d20204650474120436f6e74726f6c2052656769737465723a20202020
            202020203078000000000a0d20204650474120496e746572727570742052
            656769737465723a2020202020203078000000000a0d2020465047412049
            6e74657272757074204d61736b2052656769737465723a20307800000000
            0a0d202046504741205374617475732052656769737465723a2020202020
            202020203078000000000a0d202046504741204869676820416464726573
            732052656769737465723a2020203078000000000a0d202046504741204c
            6f7720416464726573732052656769737465723a20202020307800000000
            0a0d20486967682041646472657373204661696c20200000202046504741
            20496e746572727570742052656769737465723a20202030780020202020
            45787065637465643a202020307800002020202041637475616c3a202020
            3078000000000a0d204c6f772041646472657373204661696c2020200000
            0a0d2048696768204c656e677468204661696c20202000000a0d204c6f77
            204c656e677468204661696c2020202000000a0d2044617461204661696c
            2020202020202020202000000a0d20414c4c205041434b45545320504153
            5345442e2e2e200a0d000a0d0a0d205072657373206e756d62657220666f
            7220416374696f6e200a0d0a0d2031202052656164204650474120526567
            697374657273200a0d203220205265736574205265636569766520464946
            4f200a0d203320205265736574205472616e736d6974204649464f200a0d
            203420205472616e736d69742053696e676c65205061636b6574202d2049
            4e5445524e414c204c6f6f706261636b200a0d2035202052656365697665
            2053696e676c65205061636b657420616e6420436865636b202d20494e54
            45524e414c204c6f6f706261636b200a0d203620204c6f6f706261636b20
            5061636b6574732066726f6d203820746f20313032332042797465732026
            20436865636b202d20494e5445524e414c204c6f6f706261636b200a0d20
            3720205472616e736d69742053696e676c65205061636b6574202d204558
            5445524e414c204c6f6f706261636b200a0d203820205265636569766520
            53696e676c65205061636b657420616e6420436865636b202d2045585445
            524e414c204c6f6f706261636b200a0d203920205472616e736d69742050
            61636b6574732066726f6d203820746f2031303233204279746573202620
            436865636b202d2045585445524e414c204c6f6f706261636b200a0d2061
            20205472616e736d697420426f617264203220426f6172642053696e676c
            65205061636b6574200a0d206220205265636569766520426f6172642032
            20426f6172642053696e676c65205061636b657420616e6420436865636b
            200a0d206320205472616e736d697420426f617264203220426f61726420
            4d756c7469706c65205061636b657473200a0d2064202052656365697665
            20426f617264203220426f617264204d756c7469706c65205061636b6574
            73200a0d206520205472616e736d6974205061636b657420426c61737465
            722e200a0d2066202052657365742046504741204c6f6769632e200a0d20
            672020426c6173746572205061636b6574204c6f6f706261636b20416464
            72657373203d203078324141200a0d20682020426c617374657220506163
            6b6574204c6f6f706261636b2041646472657373203d203078324142200a
            0d20692020426c6173746572205061636b6574204c6f6f706261636b2041
            646472657373203d203078334343200a0d000a0d0a0d000000000a0d0a0d
            2052657365742052656365697665204649464f2e2e2e200a0d0000000a0d
            0a0d205265736574205472616e736d6974204649464f2e2e2e200a0d0000
            0a0d0a0d205472616e736d697474696e672053696e676c65205061636b65
            74202d20496e7465726e616c204c6f6f706261636b2e2e2e200a0d000000
            0a0d0a0d2052656365697665205369676e6c65205061636b657420616e64
            20436865636b202d20496e7465726e616c204c6f6f706261636b2e2e2e20
            0a0d00000a0d0a0d204c6f6f70696e67204261636b205061636b65747320
            52616e67696e6720696e2053697a652066726f6d20382042797465732074
            6f2032303038204279746573202d20496e7465726e616c204c6f6f706261
            636b2e2e2e20200a0d000a0d0a0d205472616e736d697474696e67205369
            6e676c65205061636b6574202d2045585445524e414c204c6f6f70626163
            6b2e2e2e200a0d0000000a0d0a0d20526563656976652053696e676c6520
            5061636b657420616e6420436865636b202d2045585445524e414c204c6f
            6f706261636b2e2e2e200a0d00000a0d0a0d204c6f6f70696e6720426163
            6b205061636b6574732052616e6765203820746f20323030382042797465
            73202d2045585445524e414c204c6f6f706261636b2e2e2e20200a0d0000
            0a0d0a0d205472616e736d6974696e6720426f61726420746f20426f6172
            642053696e676c65205061636b65742e2e2e200a0d000a0d0a0d20526563
            656976696e6720426f61726420746f20426f6172642053696e676c652050
            61636b657420616e6420436865636b2e2e2e200a0d000a0d0a0d20547261
            6e736d697474696e6720426f61726420746f20426f617264204d756c7469
            706c65205061636b6574732e2e2e200a0d000a0d0a0d2052656365697669
            6e6720426f61726420746f20426f617264204d756c7469706c6520506163
            6b6574732e2e2e200a0d000000000a0d0a0d205472616e736d6974205061
            636b657420426c61737465722e200a0d000000000a0d0a0d205265736574
            2046504741204c6f6769632e200a0d0000000a0d0a0d20426c6173746572
            205061636b6574204c6f6f706261636b2041646472657373203d20307832
            4141200a0d000a0d0a0d20426c6173746572205061636b6574204c6f6f70
            6261636b2041646472657373203d203078324142200a0d000a0d0a0d2042
            6c6173746572205061636b6574204c6f6f706261636b2041646472657373
            203d203078334343200a0d000a0d0a0d20507265737320616e79206e756d
            6265722e2e2e200a0d0a0d0000000a0d20456e7465723a20200032333435
            363738393a3b3c3d3e3f404142434445464748494a4b4c4d4e4f50510030
            014004300140083001400c3001401030014014300140183001401c300140
            2030014024300140283001402c3001403030014034300140383001403c30
            01404030014044300140483001404c300140503001405430014058300140
            5c3001406030014064300140683001406c30014070300140743001407830
            01407c3001400001000102020303f8b500bff8bc08bc9e467047f8b500bf
            f8bc08bc9e467047d5040000c104000000000000000000000000000080bf
            7608e0af1d02c05f3b0480bf7608c05f3b04c05f3b0480bf7608
            <crc>
                e3ce
            </crc>
        </region>
    </nvm>
</Actel_Data_File>
